10.013130280 2094.0
10.039390845 2131.0
10.065651411 2102.0
10.091911976 2052.0
10.118172541 2040.0
10.144433107 2064.0
10.170693672 2123.0
10.196954237 2058.0
10.223214803 2074.0
10.249475368 2032.0
10.275735934 2176.0
10.301996499 2009.0
10.328257064 2047.0
10.354517630 2020.0
10.380778195 2092.0
10.407038760 2077.0
10.433299326 1950.0
10.459559891 2059.0
10.485820456 2009.0
10.512081022 2037.0
10.538341587 2011.0
10.564602152 2084.0
10.590862718 2131.0
10.617123283 1946.0
10.643383848 1967.0
10.669644414 1989.0
10.695904979 2047.0
10.722165545 1988.0
10.748426110 2019.0
10.774686675 1928.0
10.800947241 1932.0
10.827207806 1872.0
10.853468371 1934.0
10.879728937 1980.0
10.905989502 2042.0
10.932250067 1977.0
10.958510633 1957.0
10.984771198 1971.0
11.011031763 1951.0
11.037292329 1901.0
11.063552894 1905.0
11.089813459 1866.0
11.116074025 1941.0
11.142334590 1951.0
11.168595156 1948.0
11.194855721 1894.0
11.221116286 1940.0
11.247376852 1858.0
11.273637417 1859.0
11.299897982 1841.0
11.326158548 1823.0
11.352419113 1888.0
11.378679678 1861.0
11.404940244 1840.0
11.431200809 1859.0
11.457461374 1867.0
11.483721940 1810.0
11.509982505 1785.0
11.536243070 1812.0
11.562503636 1750.0
11.588764201 1824.0
11.615024767 1807.0
11.641285332 1795.0
11.667545897 1779.0
11.693806463 1821.0
11.720067028 1791.0
11.746327593 1835.0
11.772588159 1694.0
11.798848724 1758.0
11.825109289 1815.0
11.851369855 1735.0
11.877630420 1767.0
11.903890985 1741.0
11.930151551 1769.0
11.956412116 1771.0
11.982672681 1783.0
12.008933247 1797.0
12.035193812 1789.0
12.061454378 1746.0
12.087714943 1833.0
12.113975508 1774.0
12.140236074 1675.0
12.166496639 1760.0
12.192757204 1740.0
12.219017770 1718.0
12.245278335 1667.0
12.271538900 1765.0
12.297799466 1725.0
12.324060031 1721.0
12.350320596 1698.0
12.376581162 1677.0
12.402841727 1665.0
12.429102293 1717.0
12.455362858 1720.0
12.481623423 1691.0
12.507883989 1731.0
12.534144554 1677.0
12.560405119 1744.0
12.586665685 1711.0
12.612926250 1652.0
12.639186815 1556.0
12.665447381 1690.0
12.691707946 1714.0
12.717968511 1655.0
12.744229077 1715.0
12.770489642 1557.0
12.796750207 1647.0
12.823010773 1612.0
12.849271338 1610.0
12.875531904 1586.0
12.901792469 1590.0
12.928053034 1695.0
12.954313600 1626.0
12.980574165 1644.0
13.006834730 1583.0
13.033095296 1583.0
13.059355861 1662.0
13.085616426 1605.0
13.111876992 1563.0
13.138137557 1598.0
13.164398122 1611.0
13.190658688 1610.0
13.216919253 1641.0
13.243179818 1600.0
13.269440384 1572.0
13.295700949 1452.0
13.321961515 1598.0
13.348222080 1546.0
13.374482645 1458.0
13.400743211 1574.0
13.427003776 1559.0
13.453264341 1479.0
13.479524907 1488.0
13.505785472 1513.0
13.532046037 1573.0
13.558306603 1439.0
13.584567168 1493.0
13.610827733 1479.0
13.637088299 1485.0
13.663348864 1574.0
13.689609429 1491.0
13.715869995 1550.0
13.742130560 1446.0
13.768391126 1498.0
13.794651691 1503.0
13.820912256 1471.0
13.847172822 1420.0
13.873433387 1533.0
13.899693952 1395.0
13.925954518 1473.0
13.952215083 1470.0
13.978475648 1480.0
14.004736214 1448.0
14.030996779 1398.0
14.057257344 1430.0
14.083517910 1416.0
14.109778475 1403.0
14.136039040 1482.0
14.162299606 1428.0
14.188560171 1420.0
14.214820737 1386.0
14.241081302 1429.0
14.267341867 1445.0
14.293602433 1507.0
14.319862998 1420.0
14.346123563 1436.0
14.372384129 1386.0
14.398644694 1407.0
14.424905259 1469.0
14.451165825 1368.0
14.477426390 1349.0
14.503686955 1408.0
14.529947521 1353.0
14.556208086 1382.0
14.582468651 1366.0
14.608729217 1368.0
14.634989782 1389.0
14.661250348 1375.0
14.687510913 1401.0
14.713771478 1398.0
14.740032044 1328.0
14.766292609 1366.0
14.792553174 1376.0
14.818813740 1444.0
14.845074305 1382.0
14.871334870 1343.0
14.897595436 1339.0
14.923856001 1276.0
14.950116566 1295.0
14.976377132 1367.0
15.002637697 1357.0
15.028898262 1287.0
15.055158828 1326.0
15.081419393 1339.0
15.107679959 1226.0
15.133940524 1294.0
15.160201089 1280.0
15.186461655 1278.0
15.212722220 1325.0
15.238982785 1308.0
15.265243351 1288.0
15.291503916 1298.0
15.317764481 1335.0
15.344025047 1306.0
15.370285612 1175.0
15.396546177 1311.0
15.422806743 1251.0
15.449067308 1265.0
15.475327873 1301.0
15.501588439 1286.0
15.527849004 1295.0
15.554109570 1279.0
15.580370135 1226.0
15.606630700 1315.0
15.632891266 1269.0
15.659151831 1263.0
15.685412396 1293.0
15.711672962 1247.0
15.737933527 1250.0
15.764194092 1279.0
15.790454658 1303.0
15.816715223 1276.0
15.842975788 1238.0
15.869236354 1222.0
15.895496919 1280.0
15.921757484 1200.0
15.948018050 1159.0
15.974278615 1224.0
16.000539181 1253.0
16.026799746 1199.0
16.053060311 1261.0
16.079320877 1246.0
16.105581442 1235.0
16.131842007 1235.0
16.158102573 1202.0
16.184363138 1170.0
16.210623703 1193.0
16.236884269 1308.0
16.263144834 1210.0
16.289405399 1241.0
16.315665965 1159.0
16.341926530 1182.0
16.368187095 1230.0
16.394447661 1179.0
16.420708226 1184.0
16.446968792 1170.0
16.473229357 1164.0
16.499489922 1210.0
16.525750488 1234.0
16.552011053 1179.0
16.578271618 1189.0
16.604532184 1211.0
16.630792749 1204.0
16.657053314 1179.0
16.683313880 1146.0
16.709574445 1167.0
16.735835010 1181.0
16.762095576 1118.0
16.788356141 1077.0
16.814616707 1131.0
16.840877272 1179.0
16.867137837 1159.0
16.893398403 1130.0
16.919658968 1086.0
16.945919533 1171.0
16.972180099 1164.0
16.998440664 1199.0
17.024701229 1064.0
17.050961795 1165.0
17.077222360 1112.0
17.103482925 1110.0
17.129743491 1094.0
17.156004056 1120.0
17.182264621 1124.0
17.208525187 1105.0
17.234785752 1087.0
17.261046318 1114.0
17.287306883 1100.0
17.313567448 1131.0
17.339828014 1054.0
17.366088579 1140.0
17.392349144 1060.0
17.418609710 1116.0
17.444870275 1083.0
17.471130840 1054.0
17.497391406 1146.0
17.523651971 1090.0
17.549912536 1057.0
17.576173102 1112.0
17.602433667 1104.0
17.628694232 1143.0
17.654954798 1075.0
17.681215363 1063.0
17.707475929 1079.0
17.733736494 1109.0
17.759997059 1109.0
17.786257625 1089.0
17.812518190 1031.0
17.838778755 1028.0
17.865039321 972.0
17.891299886 1076.0
17.917560451 1078.0
17.943821017 1066.0
17.970081582 1044.0
17.996342147 1076.0
18.022602713 1009.0
18.048863278 1038.0
18.075123843 1055.0
18.101384409 1044.0
18.127644974 1056.0
18.153905540 1103.0
18.180166105 998.0
18.206426670 979.0
18.232687236 1059.0
18.258947801 1032.0
18.285208366 1042.0
18.311468932 1001.0
18.337729497 1028.0
18.363990062 1030.0
18.390250628 1061.0
18.416511193 987.0
18.442771758 1051.0
18.469032324 1050.0
18.495292889 991.0
18.521553454 1010.0
18.547814020 943.0
18.574074585 978.0
18.600335151 1006.0
18.626595716 1000.0
18.652856281 1007.0
18.679116847 1011.0
18.705377412 973.0
18.731637977 982.0
18.757898543 1008.0
18.784159108 975.0
18.810419673 1034.0
18.836680239 968.0
18.862940804 997.0
18.889201369 1046.0
18.915461935 946.0
18.941722500 969.0
18.967983065 1011.0
18.994243631 1034.0
19.020504196 990.0
19.046764762 1075.0
19.073025327 993.0
19.099285892 1006.0
19.125546458 1002.0
19.151807023 1025.0
19.178067588 924.0
19.204328154 1013.0
19.230588719 968.0
19.256849284 979.0
19.283109850 1001.0
19.309370415 956.0
19.335630980 886.0
19.361891546 944.0
19.388152111 917.0
19.414412676 1002.0
19.440673242 902.0
19.466933807 963.0
19.493194373 925.0
19.519454938 896.0
19.545715503 941.0
19.571976069 939.0
19.598236634 942.0
19.624497199 936.0
19.650757765 937.0
19.677018330 940.0
19.703278895 920.0
19.729539461 915.0
19.755800026 938.0
19.782060591 976.0
19.808321157 917.0
19.834581722 960.0
19.860842287 898.0
19.887102853 924.0
19.913363418 956.0
19.939623984 921.0
19.965884549 925.0
19.992145114 926.0
20.018405680 918.0
20.044666245 917.0
20.070926810 874.0
20.097187376 876.0
20.123447941 955.0
20.149708506 914.0
20.175969072 934.0
20.202229637 910.0
20.228490202 844.0
20.254750768 956.0
20.281011333 911.0
20.307271898 933.0
20.333532464 906.0
20.359793029 875.0
20.386053595 956.0
20.412314160 894.0
20.438574725 857.0
20.464835291 918.0
20.491095856 868.0
20.517356421 867.0
20.543616987 942.0
20.569877552 901.0
20.596138117 894.0
20.622398683 923.0
20.648659248 942.0
20.674919813 912.0
20.701180379 858.0
20.727440944 869.0
20.753701509 935.0
20.779962075 869.0
20.806222640 941.0
20.832483206 889.0
20.858743771 896.0
20.885004336 853.0
20.911264902 862.0
20.937525467 831.0
20.963786032 840.0
20.990046598 887.0
21.016307163 889.0
21.042567728 888.0
21.068828294 893.0
21.095088859 795.0
21.121349424 876.0
21.147609990 878.0
21.173870555 846.0
21.200131121 881.0
21.226391686 864.0
21.252652251 838.0
21.278912817 813.0
21.305173382 885.0
21.331433947 908.0
21.357694513 891.0
21.383955078 866.0
21.410215643 814.0
21.436476209 848.0
21.462736774 871.0
21.488997339 862.0
21.515257905 851.0
21.541518470 805.0
21.567779035 833.0
21.594039601 922.0
21.620300166 894.0
21.646560732 847.0
21.672821297 833.0
21.699081862 893.0
21.725342428 847.0
21.751602993 801.0
21.777863558 833.0
21.804124124 846.0
21.830384689 810.0
21.856645254 805.0
21.882905820 854.0
21.909166385 842.0
21.935426950 844.0
21.961687516 836.0
21.987948081 883.0
22.014208646 811.0
22.040469212 827.0
22.066729777 805.0
22.092990343 791.0
22.119250908 860.0
22.145511473 868.0
22.171772039 818.0
22.198032604 784.0
22.224293169 833.0
22.250553735 793.0
22.276814300 786.0
22.303074865 816.0
22.329335431 830.0
22.355595996 783.0
22.381856561 819.0
22.408117127 850.0
22.434377692 800.0
22.460638257 754.0
22.486898823 797.0
22.513159388 750.0
22.539419954 769.0
22.565680519 793.0
22.591941084 805.0
22.618201650 766.0
22.644462215 743.0
22.670722780 796.0
22.696983346 801.0
22.723243911 774.0
22.749504476 783.0
22.775765042 795.0
22.802025607 794.0
22.828286172 820.0
22.854546738 803.0
22.880807303 748.0
22.907067868 774.0
22.933328434 845.0
22.959588999 834.0
22.985849565 813.0
23.012110130 729.0
23.038370695 723.0
23.064631261 827.0
23.090891826 777.0
23.117152391 761.0
23.143412957 731.0
23.169673522 791.0
23.195934087 772.0
23.222194653 766.0
23.248455218 761.0
23.274715783 766.0
23.300976349 811.0
23.327236914 757.0
23.353497479 746.0
23.379758045 802.0
23.406018610 748.0
23.432279176 752.0
23.458539741 737.0
23.484800306 708.0
23.511060872 800.0
23.537321437 753.0
23.563582002 740.0
23.589842568 741.0
23.616103133 704.0
23.642363698 791.0
23.668624264 747.0
23.694884829 757.0
23.721145394 743.0
23.747405960 725.0
23.773666525 743.0
23.799927090 733.0
23.826187656 694.0
23.852448221 746.0
23.878708787 736.0
23.904969352 697.0
23.931229917 700.0
23.957490483 752.0
23.983751048 678.0
24.010011613 700.0
24.036272179 725.0
24.062532744 719.0
24.088793309 739.0
24.115053875 744.0
24.141314440 720.0
24.167575005 749.0
24.193835571 770.0
24.220096136 732.0
24.246356701 739.0
24.272617267 745.0
24.298877832 715.0
24.325138398 715.0
24.351398963 691.0
24.377659528 709.0
24.403920094 702.0
24.430180659 749.0
24.456441224 817.0
24.482701790 705.0
24.508962355 742.0
24.535222920 683.0
24.561483486 655.0
24.587744051 717.0
24.614004616 686.0
24.640265182 709.0
24.666525747 722.0
24.692786312 712.0
24.719046878 706.0
24.745307443 688.0
24.771568009 716.0
24.797828574 678.0
24.824089139 733.0
24.850349705 728.0
24.876610270 672.0
24.902870835 733.0
24.929131401 681.0
24.955391966 727.0
24.981652531 700.0
25.007913097 747.0
25.034173662 749.0
25.060434227 694.0
25.086694793 690.0
25.112955358 752.0
25.139215923 670.0
25.165476489 689.0
25.191737054 710.0
25.217997620 687.0
25.244258185 718.0
25.270518750 713.0
25.296779316 648.0
25.323039881 743.0
25.349300446 709.0
25.375561012 644.0
25.401821577 691.0
25.428082142 669.0
25.454342708 748.0
25.480603273 674.0
25.506863838 698.0
25.533124404 728.0
25.559384969 690.0
25.585645535 731.0
25.611906100 744.0
25.638166665 719.0
25.664427231 723.0
25.690687796 691.0
25.716948361 686.0
25.743208927 692.0
25.769469492 684.0
25.795730057 676.0
25.821990623 698.0
25.848251188 673.0
25.874511753 650.0
25.900772319 677.0
25.927032884 690.0
25.953293449 669.0
25.979554015 694.0
26.005814580 680.0
26.032075146 694.0
26.058335711 657.0
26.084596276 621.0
26.110856842 654.0
26.137117407 671.0
26.163377972 604.0
26.189638538 682.0
26.215899103 640.0
26.242159668 728.0
26.268420234 617.0
26.294680799 639.0
26.320941364 671.0
26.347201930 663.0
26.373462495 618.0
26.399723060 705.0
26.425983626 635.0
26.452244191 690.0
26.478504757 684.0
26.504765322 647.0
26.531025887 684.0
26.557286453 662.0
26.583547018 679.0
26.609807583 623.0
26.636068149 628.0
26.662328714 669.0
26.688589279 676.0
26.714849845 601.0
26.741110410 651.0
26.767370975 688.0
26.793631541 644.0
26.819892106 626.0
26.846152671 635.0
26.872413237 639.0
26.898673802 603.0
26.924934368 656.0
26.951194933 648.0
26.977455498 622.0
27.003716064 662.0
27.029976629 632.0
27.056237194 637.0
27.082497760 670.0
27.108758325 658.0
27.135018890 660.0
27.161279456 683.0
27.187540021 646.0
27.213800586 621.0
27.240061152 677.0
27.266321717 638.0
27.292582282 598.0
27.318842848 590.0
27.345103413 611.0
27.371363979 602.0
27.397624544 623.0
27.423885109 608.0
27.450145675 577.0
27.476406240 635.0
27.502666805 591.0
27.528927371 639.0
27.555187936 592.0
27.581448501 583.0
27.607709067 623.0
27.633969632 609.0
27.660230197 605.0
27.686490763 659.0
27.712751328 568.0
27.739011893 574.0
27.765272459 607.0
27.791533024 618.0
27.817793590 611.0
27.844054155 608.0
27.870314720 661.0
27.896575286 623.0
27.922835851 648.0
27.949096416 609.0
27.975356982 584.0
28.001617547 630.0
28.027878112 645.0
28.054138678 619.0
28.080399243 603.0
28.106659808 569.0
28.132920374 596.0
28.159180939 595.0
28.185441504 610.0
28.211702070 637.0
28.237962635 595.0
28.264223201 629.0
28.290483766 633.0
28.316744331 622.0
28.343004897 622.0
28.369265462 590.0
28.395526027 601.0
28.421786593 650.0
28.448047158 628.0
28.474307723 653.0
28.500568289 654.0
28.526828854 627.0
28.553089419 625.0
28.579349985 637.0
28.605610550 619.0
28.631871115 635.0
28.658131681 656.0
28.684392246 594.0
28.710652812 629.0
28.736913377 592.0
28.763173942 602.0
28.789434508 614.0
28.815695073 617.0
28.841955638 584.0
28.868216204 614.0
28.894476769 590.0
28.920737334 573.0
28.946997900 591.0
28.973258465 592.0
28.999519030 553.0
29.025779596 593.0
29.052040161 598.0
29.078300726 620.0
29.104561292 590.0
29.130821857 610.0
29.157082423 563.0
29.183342988 595.0
29.209603553 585.0
29.235864119 577.0
29.262124684 623.0
29.288385249 585.0
29.314645815 578.0
29.340906380 602.0
29.367166945 568.0
29.393427511 645.0
29.419688076 562.0
29.445948641 568.0
29.472209207 520.0
29.498469772 574.0
29.524730337 565.0
29.550990903 554.0
29.577251468 591.0
29.603512034 597.0
29.629772599 592.0
29.656033164 562.0
29.682293730 573.0
29.708554295 584.0
29.734814860 592.0
29.761075426 584.0
29.787335991 550.0
29.813596556 580.0
29.839857122 570.0
29.866117687 551.0
29.892378252 556.0
29.918638818 568.0
29.944899383 565.0
29.971159949 589.0
29.997420514 542.0
30.023681079 545.0
30.049941645 561.0
30.076202210 556.0
30.102462775 591.0
30.128723341 584.0
30.154983906 569.0
30.181244471 558.0
30.207505037 542.0
30.233765602 585.0
30.260026167 580.0
30.286286733 548.0
30.312547298 556.0
30.338807863 586.0
30.365068429 565.0
30.391328994 549.0
30.417589560 573.0
30.443850125 586.0
30.470110690 560.0
30.496371256 585.0
30.522631821 575.0
30.548892386 529.0
30.575152952 540.0
30.601413517 556.0
30.627674082 549.0
30.653934648 546.0
30.680195213 540.0
30.706455778 589.0
30.732716344 574.0
30.758976909 557.0
30.785237474 561.0
30.811498040 558.0
30.837758605 551.0
30.864019171 521.0
30.890279736 547.0
30.916540301 531.0
30.942800867 557.0
30.969061432 542.0
30.995321997 583.0
31.021582563 529.0
31.047843128 558.0
31.074103693 551.0
31.100364259 605.0
31.126624824 587.0
31.152885389 590.0
31.179145955 602.0
31.205406520 570.0
31.231667085 592.0
31.257927651 582.0
31.284188216 530.0
31.310448782 558.0
31.336709347 508.0
31.362969912 609.0
31.389230478 523.0
31.415491043 541.0
31.441751608 550.0
31.468012174 572.0
31.494272739 535.0
31.520533304 581.0
31.546793870 566.0
31.573054435 543.0
31.599315000 588.0
31.625575566 604.0
31.651836131 592.0
31.678096696 493.0
31.704357262 568.0
31.730617827 598.0
31.756878393 510.0
31.783138958 577.0
31.809399523 537.0
31.835660089 546.0
31.861920654 533.0
31.888181219 561.0
31.914441785 571.0
31.940702350 598.0
31.966962915 561.0
31.993223481 546.0
32.019484046 503.0
32.045744611 557.0
32.072005177 600.0
32.098265742 577.0
32.124526307 548.0
32.150786873 519.0
32.177047438 571.0
32.203308004 578.0
32.229568569 576.0
32.255829134 633.0
32.282089700 528.0
32.308350265 527.0
32.334610830 571.0
32.360871396 574.0
32.387131961 580.0
32.413392526 556.0
32.439653092 550.0
32.465913657 560.0
32.492174222 570.0
32.518434788 530.0
32.544695353 559.0
32.570955918 574.0
32.597216484 581.0
32.623477049 505.0
32.649737615 528.0
32.675998180 520.0
32.702258745 528.0
32.728519311 553.0
32.754779876 539.0
32.781040441 498.0
32.807301007 569.0
32.833561572 575.0
32.859822137 493.0
32.886082703 541.0
32.912343268 540.0
32.938603833 503.0
32.964864399 541.0
32.991124964 543.0
33.017385529 509.0
33.043646095 550.0
33.069906660 538.0
33.096167226 493.0
33.122427791 530.0
33.148688356 506.0
33.174948922 532.0
33.201209487 532.0
33.227470052 483.0
33.253730618 550.0
33.279991183 487.0
33.306251748 560.0
33.332512314 514.0
33.358772879 560.0
33.385033444 486.0
33.411294010 543.0
33.437554575 531.0
33.463815140 487.0
33.490075706 535.0
33.516336271 486.0
33.542596837 517.0
33.568857402 540.0
33.595117967 552.0
33.621378533 519.0
33.647639098 526.0
33.673899663 543.0
33.700160229 513.0
33.726420794 527.0
33.752681359 570.0
33.778941925 517.0
33.805202490 513.0
33.831463055 520.0
33.857723621 526.0
33.883984186 538.0
33.910244751 556.0
33.936505317 559.0
33.962765882 527.0
33.989026448 523.0
34.015287013 535.0
34.041547578 525.0
34.067808144 586.0
34.094068709 510.0
34.120329274 530.0
34.146589840 498.0
34.172850405 490.0
34.199110970 524.0
34.225371536 505.0
34.251632101 498.0
34.277892666 494.0
34.304153232 553.0
34.330413797 478.0
34.356674363 492.0
34.382934928 500.0
34.409195493 459.0
34.435456059 541.0
34.461716624 493.0
34.487977189 510.0
34.514237755 513.0
34.540498320 542.0
34.566758885 522.0
34.593019451 525.0
34.619280016 521.0
34.645540581 528.0
34.671801147 504.0
34.698061712 558.0
34.724322277 559.0
34.750582843 610.0
34.776843408 575.0
34.803103974 652.0
34.829364539 643.0
34.855625104 654.0
34.881885670 679.0
34.908146235 665.0
34.934406800 663.0
34.960667366 697.0
34.986927931 669.0
35.013188496 592.0
35.039449062 651.0
35.065709627 573.0
35.091970192 613.0
35.118230758 637.0
35.144491323 642.0
35.170751888 628.0
35.197012454 646.0
35.223273019 617.0
35.249533585 621.0
35.275794150 598.0
35.302054715 592.0
35.328315281 625.0
35.354575846 588.0
35.380836411 596.0
35.407096977 586.0
35.433357542 573.0
35.459618107 553.0
35.485878673 552.0
35.512139238 569.0
35.538399803 600.0
35.564660369 590.0
35.590920934 559.0
35.617181499 598.0
35.643442065 543.0
35.669702630 535.0
35.695963196 518.0
35.722223761 573.0
35.748484326 527.0
35.774744892 542.0
35.801005457 530.0
35.827266022 544.0
35.853526588 561.0
35.879787153 535.0
35.906047718 575.0
35.932308284 546.0
35.958568849 482.0
35.984829414 556.0
36.011089980 590.0
36.037350545 594.0
36.063611110 545.0
36.089871676 628.0
36.116132241 596.0
36.142392807 566.0
36.168653372 599.0
36.194913937 626.0
36.221174503 614.0
36.247435068 541.0
36.273695633 566.0
36.299956199 547.0
36.326216764 579.0
36.352477329 589.0
36.378737895 602.0
36.404998460 614.0
36.431259025 605.0
36.457519591 573.0
36.483780156 606.0
36.510040721 604.0
36.536301287 583.0
36.562561852 617.0
36.588822418 574.0
36.615082983 571.0
36.641343548 531.0
36.667604114 537.0
36.693864679 567.0
36.720125244 535.0
36.746385810 566.0
36.772646375 505.0
36.798906940 477.0
36.825167506 478.0
36.851428071 523.0
36.877688636 513.0
36.903949202 504.0
36.930209767 458.0
36.956470332 520.0
36.982730898 557.0
37.008991463 523.0
37.035252029 526.0
37.061512594 491.0
37.087773159 493.0
37.114033725 486.0
37.140294290 504.0
37.166554855 499.0
37.192815421 493.0
37.219075986 469.0
37.245336551 483.0
37.271597117 503.0
37.297857682 528.0
37.324118247 510.0
37.350378813 474.0
37.376639378 459.0
37.402899943 514.0
37.429160509 492.0
37.455421074 558.0
37.481681640 480.0
37.507942205 487.0
37.534202770 454.0
37.560463336 511.0
37.586723901 479.0
37.612984466 470.0
37.639245032 482.0
37.665505597 533.0
37.691766162 493.0
37.718026728 447.0
37.744287293 560.0
37.770547858 484.0
37.796808424 495.0
37.823068989 485.0
37.849329554 516.0
37.875590120 476.0
37.901850685 508.0
37.928111251 438.0
37.954371816 497.0
37.980632381 484.0
38.006892947 479.0
38.033153512 481.0
38.059414077 472.0
38.085674643 457.0
38.111935208 462.0
38.138195773 488.0
38.164456339 465.0
38.190716904 467.0
38.216977469 487.0
38.243238035 499.0
38.269498600 476.0
38.295759166 518.0
38.322019731 509.0
38.348280296 475.0
38.374540862 444.0
38.400801427 477.0
38.427061992 497.0
38.453322558 516.0
38.479583123 464.0
38.505843688 501.0
38.532104254 484.0
38.558364819 466.0
38.584625384 476.0
38.610885950 434.0
38.637146515 472.0
38.663407080 463.0
38.689667646 477.0
38.715928211 477.0
38.742188777 448.0
38.768449342 439.0
38.794709907 439.0
38.820970473 505.0
38.847231038 444.0
38.873491603 471.0
38.899752169 463.0
38.926012734 506.0
38.952273299 464.0
38.978533865 471.0
39.004794430 518.0
39.031054995 518.0
39.057315561 468.0
39.083576126 461.0
39.109836691 472.0
39.136097257 459.0
39.162357822 470.0
39.188618388 511.0
39.214878953 470.0
39.241139518 489.0
39.267400084 476.0
39.293660649 563.0
39.319921214 495.0
39.346181780 526.0
39.372442345 520.0
39.398702910 491.0
39.424963476 490.0
39.451224041 506.0
39.477484606 473.0
39.503745172 442.0
39.530005737 456.0
39.556266302 507.0
39.582526868 486.0
39.608787433 504.0
39.635047999 485.0
39.661308564 491.0
39.687569129 481.0
39.713829695 454.0
39.740090260 447.0
39.766350825 463.0
39.792611391 451.0
39.818871956 483.0
39.845132521 488.0
39.871393087 488.0
39.897653652 434.0
39.923914217 448.0
39.950174783 462.0
39.976435348 482.0
40.002695913 478.0
40.028956479 462.0
40.055217044 464.0
40.081477610 489.0
40.107738175 475.0
40.133998740 471.0
40.160259306 471.0
40.186519871 488.0
40.212780436 483.0
40.239041002 487.0
40.265301567 479.0
40.291562132 512.0
40.317822698 456.0
40.344083263 479.0
40.370343828 521.0
40.396604394 464.0
40.422864959 520.0
40.449125524 487.0
40.475386090 478.0
40.501646655 481.0
40.527907221 514.0
40.554167786 476.0
40.580428351 548.0
40.606688917 506.0
40.632949482 525.0
40.659210047 508.0
40.685470613 512.0
40.711731178 499.0
40.737991743 496.0
40.764252309 552.0
40.790512874 506.0
40.816773439 467.0
40.843034005 553.0
40.869294570 510.0
40.895555135 502.0
40.921815701 480.0
40.948076266 487.0
40.974336832 475.0
41.000597397 508.0
41.026857962 517.0
41.053118528 563.0
41.079379093 510.0
41.105639658 514.0
41.131900224 498.0
41.158160789 504.0
41.184421354 542.0
41.210681920 525.0
41.236942485 506.0
41.263203050 557.0
41.289463616 533.0
41.315724181 550.0
41.341984746 560.0
41.368245312 519.0
41.394505877 563.0
41.420766443 571.0
41.447027008 597.0
41.473287573 578.0
41.499548139 550.0
41.525808704 558.0
41.552069269 528.0
41.578329835 578.0
41.604590400 558.0
41.630850965 508.0
41.657111531 476.0
41.683372096 539.0
41.709632661 525.0
41.735893227 505.0
41.762153792 492.0
41.788414357 548.0
41.814674923 513.0
41.840935488 520.0
41.867196054 505.0
41.893456619 483.0
41.919717184 523.0
41.945977750 489.0
41.972238315 524.0
41.998498880 490.0
42.024759446 511.0
42.051020011 487.0
42.077280576 528.0
42.103541142 533.0
42.129801707 531.0
42.156062272 570.0
42.182322838 580.0
42.208583403 570.0
42.234843968 614.0
42.261104534 686.0
42.287365099 734.0
42.313625665 806.0
42.339886230 855.0
42.366146795 1013.0
42.392407361 1025.0
42.418667926 1038.0
42.444928491 1081.0
42.471189057 1014.0
42.497449622 1003.0
42.523710187 937.0
42.549970753 835.0
42.576231318 826.0
42.602491883 763.0
42.628752449 726.0
42.655013014 737.0
42.681273580 656.0
42.707534145 613.0
42.733794710 686.0
42.760055276 614.0
42.786315841 556.0
42.812576406 608.0
42.838836972 589.0
42.865097537 548.0
42.891358102 589.0
42.917618668 527.0
42.943879233 549.0
42.970139798 504.0
42.996400364 507.0
43.022660929 525.0
43.048921494 443.0
43.075182060 451.0
43.101442625 450.0
43.127703191 455.0
43.153963756 487.0
43.180224321 437.0
43.206484887 456.0
43.232745452 410.0
43.259006017 413.0
43.285266583 406.0
43.311527148 423.0
43.337787713 440.0
43.364048279 428.0
43.390308844 421.0
43.416569409 426.0
43.442829975 421.0
43.469090540 439.0
43.495351105 420.0
43.521611671 416.0
43.547872236 426.0
43.574132802 418.0
43.600393367 437.0
43.626653932 433.0
43.652914498 388.0
43.679175063 428.0
43.705435628 429.0
43.731696194 435.0
43.757956759 454.0
43.784217324 423.0
43.810477890 409.0
43.836738455 434.0
43.862999020 421.0
43.889259586 475.0
43.915520151 434.0
43.941780716 459.0
43.968041282 446.0
43.994301847 408.0
44.020562413 421.0
44.046822978 438.0
44.073083543 416.0
44.099344109 438.0
44.125604674 423.0
44.151865239 452.0
44.178125805 451.0
44.204386370 433.0
44.230646935 414.0
44.256907501 444.0
44.283168066 455.0
44.309428631 408.0
44.335689197 457.0
44.361949762 368.0
44.388210327 437.0
44.414470893 448.0
44.440731458 425.0
44.466992024 428.0
44.493252589 399.0
44.519513154 436.0
44.545773720 405.0
44.572034285 390.0
44.598294850 398.0
44.624555416 387.0
44.650815981 400.0
44.677076546 396.0
44.703337112 443.0
44.729597677 407.0
44.755858242 397.0
44.782118808 421.0
44.808379373 400.0
44.834639938 430.0
44.860900504 412.0
44.887161069 387.0
44.913421635 433.0
44.939682200 383.0
44.965942765 438.0
44.992203331 419.0
45.018463896 425.0
45.044724461 415.0
45.070985027 396.0
45.097245592 442.0
45.123506157 421.0
45.149766723 435.0
45.176027288 429.0
45.202287853 418.0
45.228548419 457.0
45.254808984 405.0
45.281069549 423.0
45.307330115 395.0
45.333590680 421.0
45.359851246 378.0
45.386111811 390.0
45.412372376 389.0
45.438632942 387.0
45.464893507 469.0
45.491154072 403.0
45.517414638 456.0
45.543675203 409.0
45.569935768 430.0
45.596196334 397.0
45.622456899 404.0
45.648717464 440.0
45.674978030 396.0
45.701238595 398.0
45.727499160 434.0
45.753759726 382.0
45.780020291 424.0
45.806280857 403.0
45.832541422 423.0
45.858801987 426.0
45.885062553 439.0
45.911323118 423.0
45.937583683 426.0
45.963844249 435.0
45.990104814 373.0
46.016365379 407.0
46.042625945 386.0
46.068886510 395.0
46.095147075 406.0
46.121407641 394.0
46.147668206 383.0
46.173928771 426.0
46.200189337 351.0
46.226449902 445.0
46.252710468 387.0
46.278971033 417.0
46.305231598 396.0
46.331492164 420.0
46.357752729 416.0
46.384013294 428.0
46.410273860 386.0
46.436534425 381.0
46.462794990 426.0
46.489055556 389.0
46.515316121 380.0
46.541576686 404.0
46.567837252 376.0
46.594097817 434.0
46.620358382 421.0
46.646618948 392.0
46.672879513 406.0
46.699140079 376.0
46.725400644 406.0
46.751661209 381.0
46.777921775 406.0
46.804182340 404.0
46.830442905 414.0
46.856703471 420.0
46.882964036 399.0
46.909224601 362.0
46.935485167 373.0
46.961745732 367.0
46.988006297 420.0
47.014266863 420.0
47.040527428 377.0
47.066787994 390.0
47.093048559 388.0
47.119309124 420.0
47.145569690 414.0
47.171830255 427.0
47.198090820 396.0
47.224351386 451.0
47.250611951 439.0
47.276872516 396.0
47.303133082 453.0
47.329393647 423.0
47.355654212 444.0
47.381914778 404.0
47.408175343 421.0
47.434435908 446.0
47.460696474 440.0
47.486957039 423.0
47.513217605 436.0
47.539478170 437.0
47.565738735 438.0
47.591999301 470.0
47.618259866 429.0
47.644520431 435.0
47.670780997 404.0
47.697041562 432.0
47.723302127 395.0
47.749562693 411.0
47.775823258 395.0
47.802083823 388.0
47.828344389 429.0
47.854604954 419.0
47.880865519 406.0
47.907126085 434.0
47.933386650 438.0
47.959647216 406.0
47.985907781 389.0
48.012168346 446.0
48.038428912 404.0
48.064689477 426.0
48.090950042 446.0
48.117210608 416.0
48.143471173 395.0
48.169731738 389.0
48.195992304 414.0
48.222252869 406.0
48.248513434 440.0
48.274774000 405.0
48.301034565 419.0
48.327295130 428.0
48.353555696 420.0
48.379816261 422.0
48.406076827 449.0
48.432337392 437.0
48.458597957 427.0
48.484858523 428.0
48.511119088 433.0
48.537379653 449.0
48.563640219 378.0
48.589900784 427.0
48.616161349 430.0
48.642421915 399.0
48.668682480 451.0
48.694943045 481.0
48.721203611 411.0
48.747464176 460.0
48.773724741 437.0
48.799985307 488.0
48.826245872 424.0
48.852506438 454.0
48.878767003 487.0
48.905027568 461.0
48.931288134 477.0
48.957548699 512.0
48.983809264 559.0
49.010069830 546.0
49.036330395 585.0
49.062590960 590.0
49.088851526 633.0
49.115112091 658.0
49.141372656 705.0
49.167633222 794.0
49.193893787 938.0
49.220154352 1052.0
49.246414918 1236.0
49.272675483 1396.0
49.298936049 1496.0
49.325196614 1701.0
49.351457179 1806.0
49.377717745 1765.0
49.403978310 1700.0
49.430238875 1579.0
49.456499441 1484.0
49.482760006 1375.0
49.509020571 1298.0
49.535281137 1114.0
49.561541702 995.0
49.587802267 1014.0
49.614062833 936.0
49.640323398 776.0
49.666583963 776.0
49.692844529 727.0
49.719105094 716.0
49.745365660 710.0
49.771626225 657.0
49.797886790 634.0
49.824147356 637.0
49.850407921 651.0
49.876668486 609.0
49.902929052 609.0
49.929189617 620.0
49.955450182 558.0
49.981710748 608.0
50.007971313 556.0
50.034231878 563.0
50.060492444 551.0
50.086753009 550.0
50.113013574 559.0
50.139274140 551.0
50.165534705 582.0
50.191795271 544.0
50.218055836 530.0
50.244316401 533.0
50.270576967 519.0
50.296837532 478.0
50.323098097 522.0
50.349358663 473.0
50.375619228 514.0
50.401879793 501.0
50.428140359 444.0
50.454400924 504.0
50.480661489 493.0
50.506922055 444.0
50.533182620 434.0
50.559443185 468.0
50.585703751 503.0
50.611964316 470.0
50.638224882 473.0
50.664485447 468.0
50.690746012 447.0
50.717006578 431.0
50.743267143 476.0
50.769527708 491.0
50.795788274 450.0
50.822048839 452.0
50.848309404 496.0
50.874569970 461.0
50.900830535 483.0
50.927091100 540.0
50.953351666 501.0
50.979612231 509.0
51.005872796 528.0
51.032133362 562.0
51.058393927 530.0
51.084654493 538.0
51.110915058 612.0
51.137175623 511.0
51.163436189 579.0
51.189696754 564.0
51.215957319 585.0
51.242217885 618.0
51.268478450 630.0
51.294739015 647.0
51.320999581 668.0
51.347260146 641.0
51.373520711 662.0
51.399781277 725.0
51.426041842 703.0
51.452302408 810.0
51.478562973 760.0
51.504823538 811.0
51.531084104 792.0
51.557344669 820.0
51.583605234 861.0
51.609865800 887.0
51.636126365 942.0
51.662386930 903.0
51.688647496 990.0
51.714908061 1048.0
51.741168626 1039.0
51.767429192 1127.0
51.793689757 1159.0
51.819950322 1256.0
51.846210888 1275.0
51.872471453 1316.0
51.898732019 1436.0
51.924992584 1650.0
51.951253149 1786.0
51.977513715 1823.0
52.003774280 2095.0
52.030034845 2364.0
52.056295411 2657.0
52.082555976 2951.0
52.108816541 3380.0
52.135077107 3974.0
52.161337672 4682.0
52.187598237 5424.0
52.213858803 6803.0
52.240119368 8154.0
52.266379933 10025.0
52.292640499 12335.0
52.318901064 15447.0
52.345161630 19560.0
52.371422195 25310.0
52.397682760 33022.0
52.423943326 44146.0
52.450203891 58372.0
52.476464456 76280.0
52.502725022 94408.0
52.528985587 107370.0
52.555246152 108456.0
52.581506718 100491.0
52.607767283 91267.0
52.634027848 83221.0
52.660288414 74248.0
52.686548979 61744.0
52.712809544 48094.0
52.739070110 35309.0
52.765330675 26730.0
52.791591241 19644.0
52.817851806 14903.0
52.844112371 11691.0
52.870372937 9162.0
52.896633502 7378.0
52.922894067 5857.0
52.949154633 5108.0
52.975415198 4199.0
53.001675763 3689.0
53.027936329 3219.0
53.054196894 2806.0
53.080457459 2487.0
53.106718025 2308.0
53.132978590 2050.0
53.159239155 1900.0
53.185499721 1777.0
53.211760286 1591.0
53.238020852 1566.0
53.264281417 1423.0
53.290541982 1382.0
53.316802548 1208.0
53.343063113 1211.0
53.369323678 1103.0
53.395584244 1130.0
53.421844809 1019.0
53.448105374 969.0
53.474365940 947.0
53.500626505 924.0
53.526887070 936.0
53.553147636 848.0
53.579408201 872.0
53.605668766 829.0
53.631929332 816.0
53.658189897 739.0
53.684450463 773.0
53.710711028 688.0
53.736971593 744.0
53.763232159 667.0
53.789492724 650.0
53.815753289 594.0
53.842013855 660.0
53.868274420 620.0
53.894534985 643.0
53.920795551 621.0
53.947056116 638.0
53.973316681 597.0
53.999577247 558.0
54.025837812 598.0
54.052098377 557.0
54.078358943 566.0
54.104619508 567.0
54.130880074 525.0
54.157140639 486.0
54.183401204 519.0
54.209661770 502.0
54.235922335 494.0
54.262182900 526.0
54.288443466 495.0
54.314704031 464.0
54.340964596 455.0
54.367225162 480.0
54.393485727 450.0
54.419746292 471.0
54.446006858 442.0
54.472267423 492.0
54.498527988 483.0
54.524788554 457.0
54.551049119 462.0
54.577309685 449.0
54.603570250 436.0
54.629830815 410.0
54.656091381 430.0
54.682351946 450.0
54.708612511 427.0
54.734873077 408.0
54.761133642 431.0
54.787394207 417.0
54.813654773 446.0
54.839915338 454.0
54.866175903 420.0
54.892436469 406.0
54.918697034 420.0
54.944957599 433.0
54.971218165 422.0
54.997478730 428.0
55.023739296 413.0
55.049999861 408.0
55.076260426 436.0
55.102520992 436.0
55.128781557 404.0
55.155042122 433.0
55.181302688 386.0
55.207563253 382.0
55.233823818 441.0
55.260084384 406.0
55.286344949 395.0
55.312605514 351.0
55.338866080 444.0
55.365126645 413.0
55.391387210 403.0
55.417647776 393.0
55.443908341 409.0
55.470168907 399.0
55.496429472 392.0
55.522690037 396.0
55.548950603 409.0
55.575211168 375.0
55.601471733 391.0
55.627732299 388.0
55.653992864 433.0
55.680253429 405.0
55.706513995 373.0
55.732774560 384.0
55.759035125 363.0
55.785295691 418.0
55.811556256 393.0
55.837816822 378.0
55.864077387 395.0
55.890337952 376.0
55.916598518 406.0
55.942859083 358.0
55.969119648 395.0
55.995380214 370.0
56.021640779 380.0
56.047901344 398.0
56.074161910 354.0
56.100422475 382.0
56.126683040 422.0
56.152943606 366.0
56.179204171 361.0
56.205464736 383.0
56.231725302 374.0
56.257985867 325.0
56.284246433 368.0
56.310506998 376.0
56.336767563 369.0
56.363028129 407.0
56.389288694 371.0
56.415549259 372.0
56.441809825 393.0
56.468070390 386.0
56.494330955 384.0
56.520591521 371.0
56.546852086 375.0
56.573112651 371.0
56.599373217 375.0
56.625633782 350.0
56.651894347 399.0
56.678154913 406.0
56.704415478 383.0
56.730676044 353.0
56.756936609 380.0
56.783197174 346.0
56.809457740 397.0
56.835718305 379.0
56.861978870 374.0
56.888239436 378.0
56.914500001 343.0
56.940760566 356.0
56.967021132 391.0
56.993281697 387.0
57.019542262 357.0
57.045802828 350.0
57.072063393 381.0
57.098323958 370.0
57.124584524 371.0
57.150845089 392.0
57.177105655 367.0
57.203366220 375.0
57.229626785 373.0
57.255887351 349.0
57.282147916 369.0
57.308408481 369.0
57.334669047 361.0
57.360929612 334.0
57.387190177 367.0
57.413450743 370.0
57.439711308 339.0
57.465971873 381.0
57.492232439 373.0
57.518493004 377.0
57.544753569 377.0
57.571014135 374.0
57.597274700 352.0
57.623535266 347.0
57.649795831 421.0
57.676056396 335.0
57.702316962 349.0
57.728577527 371.0
57.754838092 358.0
57.781098658 374.0
57.807359223 377.0
57.833619788 366.0
57.859880354 365.0
57.886140919 346.0
57.912401484 371.0
57.938662050 388.0
57.964922615 384.0
57.991183180 365.0
58.017443746 361.0
58.043704311 388.0
58.069964877 387.0
58.096225442 355.0
58.122486007 386.0
58.148746573 392.0
58.175007138 391.0
58.201267703 371.0
58.227528269 378.0
58.253788834 350.0
58.280049399 353.0
58.306309965 345.0
58.332570530 377.0
58.358831095 387.0
58.385091661 361.0
58.411352226 387.0
58.437612791 380.0
58.463873357 388.0
58.490133922 364.0
58.516394488 381.0
58.542655053 376.0
58.568915618 372.0
58.595176184 406.0
58.621436749 398.0
58.647697314 373.0
58.673957880 397.0
58.700218445 402.0
58.726479010 377.0
58.752739576 382.0
58.779000141 396.0
58.805260706 371.0
58.831521272 417.0
58.857781837 435.0
58.884042402 406.0
58.910302968 407.0
58.936563533 361.0
58.962824099 351.0
58.989084664 404.0
59.015345229 406.0
59.041605795 401.0
59.067866360 396.0
59.094126925 374.0
59.120387491 437.0
59.146648056 381.0
59.172908621 353.0
59.199169187 349.0
59.225429752 353.0
59.251690317 404.0
59.277950883 341.0
59.304211448 374.0
59.330472013 349.0
59.356732579 367.0
59.382993144 367.0
59.409253710 377.0
59.435514275 384.0
59.461774840 350.0
59.488035406 372.0
59.514295971 319.0
59.540556536 376.0
59.566817102 377.0
59.593077667 336.0
59.619338232 353.0
59.645598798 361.0
59.671859363 361.0
59.698119928 346.0
59.724380494 386.0
59.750641059 348.0
59.776901624 351.0
59.803162190 372.0
59.829422755 343.0
59.855683321 369.0
59.881943886 346.0
59.908204451 348.0
59.934465017 351.0
59.960725582 344.0
59.986986147 383.0
60.013246713 328.0
60.039507278 352.0
60.065767843 362.0
60.092028409 330.0
60.118288974 376.0
60.144549539 367.0
60.170810105 347.0
60.197070670 330.0
60.223331236 342.0
60.249591801 364.0
60.275852366 328.0
60.302112932 346.0
60.328373497 364.0
60.354634062 349.0
60.380894628 340.0
60.407155193 328.0
60.433415758 345.0
60.459676324 321.0
60.485936889 359.0
60.512197454 345.0
60.538458020 343.0
60.564718585 345.0
60.590979150 353.0
60.617239716 374.0
60.643500281 349.0
60.669760847 358.0
60.696021412 358.0
60.722281977 374.0
60.748542543 375.0
60.774803108 328.0
60.801063673 361.0
60.827324239 366.0
60.853584804 375.0
60.879845369 372.0
60.906105935 334.0
60.932366500 372.0
60.958627065 409.0
60.984887631 375.0
61.011148196 382.0
61.037408761 419.0
61.063669327 331.0
61.089929892 323.0
61.116190458 408.0
61.142451023 379.0
61.168711588 352.0
61.194972154 340.0
61.221232719 374.0
61.247493284 360.0
61.273753850 382.0
61.300014415 381.0
61.326274980 371.0
61.352535546 378.0
61.378796111 380.0
61.405056676 361.0
61.431317242 384.0
61.457577807 372.0
61.483838372 369.0
61.510098938 374.0
61.536359503 357.0
61.562620069 362.0
61.588880634 343.0
61.615141199 369.0
61.641401765 376.0
61.667662330 371.0
61.693922895 341.0
61.720183461 335.0
61.746444026 374.0
61.772704591 315.0
61.798965157 370.0
61.825225722 363.0
61.851486287 349.0
61.877746853 367.0
61.904007418 324.0
61.930267983 363.0
61.956528549 354.0
61.982789114 341.0
62.009049680 342.0
62.035310245 317.0
62.061570810 334.0
62.087831376 332.0
62.114091941 327.0
62.140352506 313.0
62.166613072 346.0
62.192873637 336.0
62.219134202 358.0
62.245394768 357.0
62.271655333 298.0
62.297915898 338.0
62.324176464 318.0
62.350437029 326.0
62.376697594 298.0
62.402958160 333.0
62.429218725 340.0
62.455479291 335.0
62.481739856 335.0
62.508000421 368.0
62.534260987 333.0
62.560521552 372.0
62.586782117 362.0
62.613042683 352.0
62.639303248 383.0
62.665563813 361.0
62.691824379 338.0
62.718084944 376.0
62.744345509 343.0
62.770606075 357.0
62.796866640 337.0
62.823127205 316.0
62.849387771 342.0
62.875648336 361.0
62.901908902 382.0
62.928169467 310.0
62.954430032 315.0
62.980690598 354.0
63.006951163 328.0
63.033211728 354.0
63.059472294 339.0
63.085732859 336.0
63.111993424 319.0
63.138253990 339.0
63.164514555 353.0
63.190775120 349.0
63.217035686 311.0
63.243296251 359.0
63.269556816 363.0
63.295817382 388.0
63.322077947 343.0
63.348338513 330.0
63.374599078 342.0
63.400859643 333.0
63.427120209 332.0
63.453380774 352.0
63.479641339 348.0
63.505901905 325.0
63.532162470 357.0
63.558423035 351.0
63.584683601 346.0
63.610944166 324.0
63.637204731 333.0
63.663465297 319.0
63.689725862 344.0
63.715986427 323.0
63.742246993 355.0
63.768507558 339.0
63.794768124 333.0
63.821028689 351.0
63.847289254 354.0
63.873549820 332.0
63.899810385 356.0
63.926070950 340.0
63.952331516 355.0
63.978592081 336.0
64.004852646 353.0
64.031113212 311.0
64.057373777 322.0
64.083634342 364.0
64.109894908 345.0
64.136155473 320.0
64.162416038 344.0
64.188676604 338.0
64.214937169 322.0
64.241197735 366.0
64.267458300 364.0
64.293718865 337.0
64.319979431 340.0
64.346239996 315.0
64.372500561 362.0
64.398761127 299.0
64.425021692 305.0
64.451282257 338.0
64.477542823 363.0
64.503803388 356.0
64.530063953 349.0
64.556324519 343.0
64.582585084 330.0
64.608845650 347.0
64.635106215 364.0
64.661366780 335.0
64.687627346 368.0
64.713887911 343.0
64.740148476 325.0
64.766409042 361.0
64.792669607 343.0
64.818930172 337.0
64.845190738 332.0
64.871451303 357.0
64.897711868 313.0
64.923972434 352.0
64.950232999 324.0
64.976493564 371.0
65.002754130 334.0
65.029014695 355.0
65.055275261 354.0
65.081535826 334.0
65.107796391 338.0
65.134056957 337.0
65.160317522 335.0
65.186578087 352.0
65.212838653 374.0
65.239099218 353.0
65.265359783 342.0
65.291620349 343.0
65.317880914 335.0
65.344141479 315.0
65.370402045 341.0
65.396662610 371.0
65.422923175 327.0
65.449183741 368.0
65.475444306 327.0
65.501704872 330.0
65.527965437 352.0
65.554226002 347.0
65.580486568 330.0
65.606747133 357.0
65.633007698 329.0
65.659268264 358.0
65.685528829 342.0
65.711789394 323.0
65.738049960 348.0
65.764310525 362.0
65.790571090 341.0
65.816831656 323.0
65.843092221 363.0
65.869352786 375.0
65.895613352 350.0
65.921873917 317.0
65.948134483 354.0
65.974395048 337.0
66.000655613 339.0
66.026916179 311.0
66.053176744 342.0
66.079437309 356.0
66.105697875 321.0
66.131958440 310.0
66.158219005 337.0
66.184479571 351.0
66.210740136 339.0
66.237000701 377.0
66.263261267 341.0
66.289521832 360.0
66.315782397 349.0
66.342042963 350.0
66.368303528 351.0
66.394564094 332.0
66.420824659 348.0
66.447085224 342.0
66.473345790 345.0
66.499606355 344.0
66.525866920 348.0
66.552127486 367.0
66.578388051 371.0
66.604648616 346.0
66.630909182 392.0
66.657169747 344.0
66.683430312 394.0
66.709690878 335.0
66.735951443 356.0
66.762212008 358.0
66.788472574 339.0
66.814733139 374.0
66.840993705 326.0
66.867254270 364.0
66.893514835 364.0
66.919775401 389.0
66.946035966 332.0
66.972296531 365.0
66.998557097 370.0
67.024817662 377.0
67.051078227 359.0
67.077338793 313.0
67.103599358 317.0
67.129859923 307.0
67.156120489 331.0
67.182381054 337.0
67.208641619 355.0
67.234902185 366.0
67.261162750 366.0
67.287423316 352.0
67.313683881 326.0
67.339944446 347.0
67.366205012 342.0
67.392465577 332.0
67.418726142 338.0
67.444986708 341.0
67.471247273 325.0
67.497507838 361.0
67.523768404 363.0
67.550028969 319.0
67.576289534 342.0
67.602550100 344.0
67.628810665 308.0
67.655071230 354.0
67.681331796 329.0
67.707592361 318.0
67.733852927 324.0
67.760113492 359.0
67.786374057 341.0
67.812634623 335.0
67.838895188 323.0
67.865155753 368.0
67.891416319 341.0
67.917676884 327.0
67.943937449 366.0
67.970198015 357.0
67.996458580 358.0
68.022719145 368.0
68.048979711 364.0
68.075240276 325.0
68.101500841 378.0
68.127761407 345.0
68.154021972 388.0
68.180282538 329.0
68.206543103 351.0
68.232803668 353.0
68.259064234 370.0
68.285324799 350.0
68.311585364 301.0
68.337845930 346.0
68.364106495 357.0
68.390367060 347.0
68.416627626 337.0
68.442888191 331.0
68.469148756 352.0
68.495409322 371.0
68.521669887 332.0
68.547930452 324.0
68.574191018 354.0
68.600451583 399.0
68.626712149 337.0
68.652972714 335.0
68.679233279 398.0
68.705493845 331.0
68.731754410 376.0
68.758014975 346.0
68.784275541 356.0
68.810536106 354.0
68.836796671 362.0
68.863057237 336.0
68.889317802 349.0
68.915578367 349.0
68.941838933 355.0
68.968099498 353.0
68.994360064 362.0
69.020620629 341.0
69.046881194 337.0
69.073141760 315.0
69.099402325 361.0
69.125662890 331.0
69.151923456 338.0
69.178184021 331.0
69.204444586 376.0
69.230705152 348.0
69.256965717 327.0
69.283226282 349.0
69.309486848 356.0
69.335747413 377.0
69.362007978 353.0
69.388268544 342.0
69.414529109 347.0
69.440789675 368.0
69.467050240 350.0
69.493310805 355.0
69.519571371 365.0
69.545831936 371.0
69.572092501 345.0
69.598353067 362.0
69.624613632 371.0
69.650874197 350.0
69.677134763 361.0
69.703395328 353.0
69.729655893 322.0
69.755916459 336.0
69.782177024 394.0
69.808437589 324.0
69.834698155 343.0
69.860958720 342.0
69.887219286 378.0
69.913479851 338.0
69.939740416 375.0
69.966000982 340.0
69.992261547 296.0
70.018522112 325.0
70.044782678 352.0
70.071043243 324.0
70.097303808 315.0
70.123564374 321.0
70.149824939 333.0
70.176085504 355.0
70.202346070 386.0
70.228606635 353.0
70.254867200 326.0
70.281127766 330.0
70.307388331 364.0
70.333648897 314.0
70.359909462 364.0
70.386170027 330.0
70.412430593 359.0
70.438691158 317.0
70.464951723 331.0
70.491212289 367.0
70.517472854 338.0
70.543733419 358.0
70.569993985 345.0
70.596254550 323.0
70.622515115 297.0
70.648775681 323.0
70.675036246 349.0
70.701296811 313.0
70.727557377 340.0
70.753817942 349.0
70.780078508 344.0
70.806339073 345.0
70.832599638 342.0
70.858860204 342.0
70.885120769 336.0
70.911381334 330.0
70.937641900 362.0
70.963902465 341.0
70.990163030 347.0
71.016423596 387.0
71.042684161 362.0
71.068944726 392.0
71.095205292 344.0
71.121465857 364.0
71.147726422 394.0
71.173986988 341.0
71.200247553 334.0
71.226508119 351.0
71.252768684 368.0
71.279029249 365.0
71.305289815 356.0
71.331550380 348.0
71.357810945 337.0
71.384071511 344.0
71.410332076 337.0
71.436592641 366.0
71.462853207 355.0
71.489113772 324.0
71.515374337 354.0
71.541634903 385.0
71.567895468 356.0
71.594156033 355.0
71.620416599 350.0
71.646677164 344.0
71.672937730 380.0
71.699198295 343.0
71.725458860 371.0
71.751719426 402.0
71.777979991 408.0
71.804240556 395.0
71.830501122 388.0
71.856761687 447.0
71.883022252 413.0
71.909282818 427.0
71.935543383 445.0
71.961803948 430.0
71.988064514 507.0
72.014325079 468.0
72.040585644 543.0
72.066846210 541.0
72.093106775 662.0
72.119367341 691.0
72.145627906 734.0
72.171888471 754.0
72.198149037 824.0
72.224409602 834.0
72.250670167 873.0
72.276930733 840.0
72.303191298 858.0
72.329451863 903.0
72.355712429 816.0
72.381972994 827.0
72.408233559 793.0
72.434494125 797.0
72.460754690 693.0
72.487015255 730.0
72.513275821 677.0
72.539536386 610.0
72.565796952 620.0
72.592057517 574.0
72.618318082 570.0
72.644578648 507.0
72.670839213 503.0
72.697099778 546.0
72.723360344 517.0
72.749620909 532.0
72.775881474 432.0
72.802142040 463.0
72.828402605 457.0
72.854663170 470.0
72.880923736 462.0
72.907184301 431.0
72.933444866 435.0
72.959705432 422.0
72.985965997 417.0
73.012226563 377.0
73.038487128 391.0
73.064747693 411.0
73.091008259 398.0
73.117268824 386.0
73.143529389 396.0
73.169789955 393.0
73.196050520 411.0
73.222311085 401.0
73.248571651 401.0
73.274832216 392.0
73.301092781 398.0
73.327353347 402.0
73.353613912 380.0
73.379874478 408.0
73.406135043 399.0
73.432395608 385.0
73.458656174 360.0
73.484916739 377.0
73.511177304 398.0
73.537437870 383.0
73.563698435 356.0
73.589959000 342.0
73.616219566 342.0
73.642480131 399.0
73.668740696 340.0
73.695001262 384.0
73.721261827 365.0
73.747522392 360.0
73.773782958 353.0
73.800043523 364.0
73.826304089 389.0
73.852564654 361.0
73.878825219 375.0
73.905085785 323.0
73.931346350 367.0
73.957606915 404.0
73.983867481 367.0
74.010128046 337.0
74.036388611 360.0
74.062649177 353.0
74.088909742 355.0
74.115170307 348.0
74.141430873 366.0
74.167691438 375.0
74.193952003 322.0
74.220212569 340.0
74.246473134 329.0
74.272733700 335.0
74.298994265 341.0
74.325254830 345.0
74.351515396 373.0
74.377775961 335.0
74.404036526 377.0
74.430297092 369.0
74.456557657 372.0
74.482818222 353.0
74.509078788 354.0
74.535339353 401.0
74.561599918 351.0
74.587860484 331.0
74.614121049 330.0
74.640381614 351.0
74.666642180 330.0
74.692902745 339.0
74.719163311 334.0
74.745423876 363.0
74.771684441 331.0
74.797945007 381.0
74.824205572 327.0
74.850466137 340.0
74.876726703 380.0
74.902987268 348.0
74.929247833 360.0
74.955508399 361.0
74.981768964 352.0
75.008029529 353.0
75.034290095 325.0
75.060550660 364.0
75.086811225 388.0
75.113071791 366.0
75.139332356 358.0
75.165592922 354.0
75.191853487 362.0
75.218114052 317.0
75.244374618 344.0
75.270635183 337.0
75.296895748 374.0
75.323156314 381.0
75.349416879 356.0
75.375677444 355.0
75.401938010 367.0
75.428198575 347.0
75.454459140 364.0
75.480719706 353.0
75.506980271 332.0
75.533240836 397.0
75.559501402 350.0
75.585761967 361.0
75.612022533 377.0
75.638283098 370.0
75.664543663 367.0
75.690804229 357.0
75.717064794 377.0
75.743325359 382.0
75.769585925 376.0
75.795846490 388.0
75.822107055 351.0
75.848367621 377.0
75.874628186 436.0
75.900888751 410.0
75.927149317 419.0
75.953409882 369.0
75.979670447 390.0
76.005931013 398.0
76.032191578 404.0
76.058452144 385.0
76.084712709 451.0
76.110973274 445.0
76.137233840 459.0
76.163494405 416.0
76.189754970 432.0
76.216015536 467.0
76.242276101 459.0
76.268536666 441.0
76.294797232 447.0
76.321057797 497.0
76.347318362 491.0
76.373578928 503.0
76.399839493 535.0
76.426100058 498.0
76.452360624 531.0
76.478621189 505.0
76.504881755 589.0
76.531142320 583.0
76.557402885 592.0
76.583663451 608.0
76.609924016 654.0
76.636184581 692.0
76.662445147 650.0
76.688705712 749.0
76.714966277 783.0
76.741226843 836.0
76.767487408 928.0
76.793747973 932.0
76.820008539 981.0
76.846269104 1037.0
76.872529669 1124.0
76.898790235 1252.0
76.925050800 1243.0
76.951311366 1458.0
76.977571931 1519.0
77.003832496 1832.0
77.030093062 1953.0
77.056353627 2182.0
77.082614192 2364.0
77.108874758 2838.0
77.135135323 3161.0
77.161395888 3569.0
77.187656454 4252.0
77.213917019 4596.0
77.240177584 5366.0
77.266438150 5798.0
77.292698715 6662.0
77.318959280 7318.0
77.345219846 7926.0
77.371480411 8354.0
77.397740977 8419.0
77.424001542 8376.0
77.450262107 7970.0
77.476522673 7913.0
77.502783238 7263.0
77.529043803 7163.0
77.555304369 6761.0
77.581564934 6374.0
77.607825499 5746.0
77.634086065 5112.0
77.660346630 4589.0
77.686607195 4170.0
77.712867761 3543.0
77.739128326 3246.0
77.765388892 2758.0
77.791649457 2443.0
77.817910022 2138.0
77.844170588 1874.0
77.870431153 1709.0
77.896691718 1529.0
77.922952284 1387.0
77.949212849 1289.0
77.975473414 1124.0
78.001733980 1070.0
78.027994545 1042.0
78.054255110 943.0
78.080515676 849.0
78.106776241 897.0
78.133036806 782.0
78.159297372 768.0
78.185557937 680.0
78.211818503 683.0
78.238079068 647.0
78.264339633 642.0
78.290600199 629.0
78.316860764 593.0
78.343121329 584.0
78.369381895 569.0
78.395642460 545.0
78.421903025 556.0
78.448163591 508.0
78.474424156 479.0
78.500684721 496.0
78.526945287 505.0
78.553205852 483.0
78.579466417 480.0
78.605726983 448.0
78.631987548 424.0
78.658248114 435.0
78.684508679 485.0
78.710769244 465.0
78.737029810 439.0
78.763290375 431.0
78.789550940 413.0
78.815811506 421.0
78.842072071 432.0
78.868332636 429.0
78.894593202 440.0
78.920853767 421.0
78.947114332 387.0
78.973374898 389.0
78.999635463 389.0
79.025896028 421.0
79.052156594 384.0
79.078417159 385.0
79.104677725 361.0
79.130938290 366.0
79.157198855 358.0
79.183459421 376.0
79.209719986 397.0
79.235980551 374.0
79.262241117 363.0
79.288501682 376.0
79.314762247 415.0
79.341022813 385.0
79.367283378 342.0
79.393543943 351.0
79.419804509 360.0
79.446065074 392.0
79.472325639 391.0
79.498586205 358.0
79.524846770 352.0
79.551107336 373.0
79.577367901 397.0
79.603628466 308.0
79.629889032 366.0
79.656149597 370.0
79.682410162 339.0
79.708670728 361.0
79.734931293 344.0
79.761191858 334.0
79.787452424 353.0
79.813712989 330.0
79.839973554 304.0
79.866234120 386.0
79.892494685 362.0
79.918755250 378.0
79.945015816 352.0
79.971276381 378.0
79.997536947 350.0
80.023797512 324.0
80.050058077 341.0
80.076318643 332.0
80.102579208 376.0
80.128839773 314.0
80.155100339 320.0
80.181360904 363.0
80.207621469 343.0
80.233882035 355.0
80.260142600 330.0
80.286403165 338.0
80.312663731 323.0
80.338924296 358.0
80.365184861 338.0
80.391445427 346.0
80.417705992 297.0
80.443966558 352.0
80.470227123 321.0
80.496487688 330.0
80.522748254 353.0
80.549008819 321.0
80.575269384 335.0
80.601529950 323.0
80.627790515 338.0
80.654051080 361.0
80.680311646 347.0
80.706572211 328.0
80.732832776 315.0
80.759093342 358.0
80.785353907 347.0
80.811614472 356.0
80.837875038 309.0
80.864135603 319.0
80.890396169 328.0
80.916656734 318.0
80.942917299 354.0
80.969177865 353.0
80.995438430 316.0
81.021698995 325.0
81.047959561 317.0
81.074220126 310.0
81.100480691 332.0
81.126741257 358.0
81.153001822 312.0
81.179262387 338.0
81.205522953 342.0
81.231783518 366.0
81.258044083 327.0
81.284304649 321.0
81.310565214 345.0
81.336825780 308.0
81.363086345 339.0
81.389346910 332.0
81.415607476 320.0
81.441868041 318.0
81.468128606 283.0
81.494389172 326.0
81.520649737 381.0
81.546910302 351.0
81.573170868 308.0
81.599431433 336.0
81.625691998 336.0
81.651952564 309.0
81.678213129 267.0
81.704473694 355.0
81.730734260 345.0
81.756994825 347.0
81.783255391 341.0
81.809515956 344.0
81.835776521 290.0
81.862037087 306.0
81.888297652 328.0
81.914558217 300.0
81.940818783 311.0
81.967079348 326.0
81.993339913 336.0
82.019600479 321.0
82.045861044 323.0
82.072121609 287.0
82.098382175 323.0
82.124642740 332.0
82.150903306 378.0
82.177163871 309.0
82.203424436 306.0
82.229685002 350.0
82.255945567 333.0
82.282206132 319.0
82.308466698 314.0
82.334727263 310.0
82.360987828 303.0
82.387248394 329.0
82.413508959 329.0
82.439769524 309.0
82.466030090 304.0
82.492290655 312.0
82.518551220 302.0
82.544811786 337.0
82.571072351 330.0
82.597332917 333.0
82.623593482 308.0
82.649854047 318.0
82.676114613 317.0
82.702375178 355.0
82.728635743 286.0
82.754896309 314.0
82.781156874 340.0
82.807417439 302.0
82.833678005 285.0
82.859938570 326.0
82.886199135 308.0
82.912459701 325.0
82.938720266 318.0
82.964980831 322.0
82.991241397 323.0
83.017501962 326.0
83.043762528 342.0
83.070023093 351.0
83.096283658 297.0
83.122544224 360.0
83.148804789 331.0
83.175065354 343.0
83.201325920 332.0
83.227586485 305.0
83.253847050 273.0
83.280107616 315.0
83.306368181 314.0
83.332628746 326.0
83.358889312 306.0
83.385149877 325.0
83.411410442 314.0
83.437671008 308.0
83.463931573 299.0
83.490192139 339.0
83.516452704 325.0
83.542713269 314.0
83.568973835 299.0
83.595234400 316.0
83.621494965 307.0
83.647755531 336.0
83.674016096 323.0
83.700276661 314.0
83.726537227 304.0
83.752797792 317.0
83.779058357 306.0
83.805318923 326.0
83.831579488 331.0
83.857840053 316.0
83.884100619 315.0
83.910361184 313.0
83.936621750 282.0
83.962882315 339.0
83.989142880 329.0
84.015403446 323.0
84.041664011 332.0
84.067924576 338.0
84.094185142 320.0
84.120445707 343.0
84.146706272 339.0
84.172966838 317.0
84.199227403 354.0
84.225487968 326.0
84.251748534 331.0
84.278009099 328.0
84.304269664 375.0
84.330530230 336.0
84.356790795 349.0
84.383051361 332.0
84.409311926 318.0
84.435572491 328.0
84.461833057 302.0
84.488093622 326.0
84.514354187 361.0
84.540614753 326.0
84.566875318 321.0
84.593135883 358.0
84.619396449 302.0
84.645657014 311.0
84.671917579 351.0
84.698178145 303.0
84.724438710 322.0
84.750699275 298.0
84.776959841 346.0
84.803220406 328.0
84.829480972 354.0
84.855741537 342.0
84.882002102 352.0
84.908262668 365.0
84.934523233 332.0
84.960783798 354.0
84.987044364 303.0
85.013304929 324.0
85.039565494 338.0
85.065826060 345.0
85.092086625 329.0
85.118347190 337.0
85.144607756 344.0
85.170868321 338.0
85.197128886 328.0
85.223389452 364.0
85.249650017 370.0
85.275910583 299.0
85.302171148 328.0
85.328431713 346.0
85.354692279 327.0
85.380952844 326.0
85.407213409 303.0
85.433473975 353.0
85.459734540 348.0
85.485995105 334.0
85.512255671 321.0
85.538516236 323.0
85.564776801 342.0
85.591037367 306.0
85.617297932 320.0
85.643558497 325.0
85.669819063 303.0
85.696079628 329.0
85.722340194 336.0
85.748600759 315.0
85.774861324 348.0
85.801121890 336.0
85.827382455 365.0
85.853643020 316.0
85.879903586 343.0
85.906164151 335.0
85.932424716 323.0
85.958685282 336.0
85.984945847 335.0
86.011206412 303.0
86.037466978 343.0
86.063727543 360.0
86.089988109 331.0
86.116248674 337.0
86.142509239 374.0
86.168769805 347.0
86.195030370 301.0
86.221290935 299.0
86.247551501 326.0
86.273812066 344.0
86.300072631 322.0
86.326333197 355.0
86.352593762 301.0
86.378854327 336.0
86.405114893 305.0
86.431375458 337.0
86.457636023 346.0
86.483896589 328.0
86.510157154 339.0
86.536417720 345.0
86.562678285 341.0
86.588938850 331.0
86.615199416 330.0
86.641459981 341.0
86.667720546 341.0
86.693981112 344.0
86.720241677 353.0
86.746502242 321.0
86.772762808 361.0
86.799023373 350.0
86.825283938 351.0
86.851544504 339.0
86.877805069 363.0
86.904065634 320.0
86.930326200 351.0
86.956586765 322.0
86.982847331 352.0
87.009107896 348.0
87.035368461 339.0
87.061629027 336.0
87.087889592 372.0
87.114150157 361.0
87.140410723 396.0
87.166671288 404.0
87.192931853 362.0
87.219192419 376.0
87.245452984 399.0
87.271713549 428.0
87.297974115 438.0
87.324234680 396.0
87.350495245 387.0
87.376755811 425.0
87.403016376 416.0
87.429276942 441.0
87.455537507 412.0
87.481798072 398.0
87.508058638 399.0
87.534319203 385.0
87.560579768 411.0
87.586840334 394.0
87.613100899 409.0
87.639361464 389.0
87.665622030 406.0
87.691882595 415.0
87.718143160 389.0
87.744403726 391.0
87.770664291 362.0
87.796924856 390.0
87.823185422 358.0
87.849445987 392.0
87.875706553 382.0
87.901967118 344.0
87.928227683 386.0
87.954488249 387.0
87.980748814 366.0
88.007009379 345.0
88.033269945 405.0
88.059530510 367.0
88.085791075 337.0
88.112051641 334.0
88.138312206 348.0
88.164572771 366.0
88.190833337 339.0
88.217093902 341.0
88.243354467 312.0
88.269615033 351.0
88.295875598 350.0
88.322136164 328.0
88.348396729 320.0
88.374657294 374.0
88.400917860 350.0
88.427178425 350.0
88.453438990 353.0
88.479699556 357.0
88.505960121 350.0
88.532220686 380.0
88.558481252 338.0
88.584741817 325.0
88.611002382 337.0
88.637262948 335.0
88.663523513 389.0
88.689784078 332.0
88.716044644 323.0
88.742305209 323.0
88.768565775 323.0
88.794826340 339.0
88.821086905 330.0
88.847347471 333.0
88.873608036 335.0
88.899868601 313.0
88.926129167 318.0
88.952389732 335.0
88.978650297 330.0
89.004910863 321.0
89.031171428 330.0
89.057431993 356.0
89.083692559 339.0
89.109953124 338.0
89.136213689 340.0
89.162474255 327.0
89.188734820 309.0
89.214995386 340.0
89.241255951 321.0
89.267516516 321.0
89.293777082 348.0
89.320037647 322.0
89.346298212 316.0
89.372558778 345.0
89.398819343 320.0
89.425079908 324.0
89.451340474 335.0
89.477601039 334.0
89.503861604 335.0
89.530122170 329.0
89.556382735 304.0
89.582643300 322.0
89.608903866 368.0
89.635164431 328.0
89.661424997 332.0
89.687685562 328.0
89.713946127 339.0
89.740206693 327.0
89.766467258 308.0
89.792727823 312.0
89.818988389 351.0
89.845248954 343.0
89.871509519 316.0
89.897770085 321.0
89.924030650 360.0
89.950291215 350.0
89.976551781 328.0
90.002812346 322.0
90.029072911 339.0
90.055333477 341.0
90.081594042 348.0
90.107854608 343.0
90.134115173 310.0
90.160375738 339.0
90.186636304 331.0
90.212896869 350.0
90.239157434 339.0
90.265418000 348.0
90.291678565 346.0
90.317939130 311.0
90.344199696 337.0
90.370460261 318.0
90.396720826 332.0
90.422981392 340.0
90.449241957 332.0
90.475502523 336.0
90.501763088 343.0
90.528023653 299.0
90.554284219 345.0
90.580544784 343.0
90.606805349 328.0
90.633065915 346.0
90.659326480 355.0
90.685587045 315.0
90.711847611 323.0
90.738108176 320.0
90.764368741 347.0
90.790629307 331.0
90.816889872 338.0
90.843150437 350.0
90.869411003 343.0
90.895671568 335.0
90.921932134 347.0
90.948192699 331.0
90.974453264 344.0
91.000713830 345.0
91.026974395 357.0
91.053234960 312.0
91.079495526 318.0
91.105756091 321.0
91.132016656 320.0
91.158277222 338.0
91.184537787 341.0
91.210798352 331.0
91.237058918 334.0
91.263319483 341.0
91.289580048 352.0
91.315840614 362.0
91.342101179 328.0
91.368361745 340.0
91.394622310 368.0
91.420882875 327.0
91.447143441 301.0
91.473404006 351.0
91.499664571 319.0
91.525925137 390.0
91.552185702 339.0
91.578446267 371.0
91.604706833 334.0
91.630967398 348.0
91.657227963 370.0
91.683488529 323.0
91.709749094 391.0
91.736009659 341.0
91.762270225 314.0
91.788530790 365.0
91.814791356 370.0
91.841051921 338.0
91.867312486 321.0
91.893573052 332.0
91.919833617 342.0
91.946094182 387.0
91.972354748 386.0
91.998615313 327.0
92.024875878 379.0
92.051136444 368.0
92.077397009 355.0
92.103657574 336.0
92.129918140 396.0
92.156178705 385.0
92.182439270 381.0
92.208699836 380.0
92.234960401 380.0
92.261220967 389.0
92.287481532 378.0
92.313742097 388.0
92.340002663 415.0
92.366263228 378.0
92.392523793 395.0
92.418784359 391.0
92.445044924 435.0
92.471305489 411.0
92.497566055 399.0
92.523826620 392.0
92.550087185 388.0
92.576347751 403.0
92.602608316 391.0
92.628868881 386.0
92.655129447 398.0
92.681390012 389.0
92.707650578 397.0
92.733911143 374.0
92.760171708 397.0
92.786432274 379.0
92.812692839 372.0
92.838953404 355.0
92.865213970 346.0
92.891474535 399.0
92.917735100 389.0
92.943995666 387.0
92.970256231 380.0
92.996516796 394.0
93.022777362 344.0
93.049037927 390.0
93.075298492 395.0
93.101559058 372.0
93.127819623 350.0
93.154080189 345.0
93.180340754 308.0
93.206601319 352.0
93.232861885 347.0
93.259122450 335.0
93.285383015 353.0
93.311643581 333.0
93.337904146 356.0
93.364164711 340.0
93.390425277 369.0
93.416685842 352.0
93.442946407 373.0
93.469206973 326.0
93.495467538 357.0
93.521728103 333.0
93.547988669 352.0
93.574249234 354.0
93.600509800 393.0
93.626770365 339.0
93.653030930 325.0
93.679291496 331.0
93.705552061 330.0
93.731812626 327.0
93.758073192 325.0
93.784333757 346.0
93.810594322 332.0
93.836854888 359.0
93.863115453 321.0
93.889376018 347.0
93.915636584 353.0
93.941897149 342.0
93.968157714 383.0
93.994418280 339.0
94.020678845 383.0
94.046939411 341.0
94.073199976 339.0
94.099460541 365.0
94.125721107 362.0
94.151981672 335.0
94.178242237 386.0
94.204502803 328.0
94.230763368 343.0
94.257023933 325.0
94.283284499 364.0
94.309545064 332.0
94.335805629 317.0
94.362066195 361.0
94.388326760 350.0
94.414587325 346.0
94.440847891 335.0
94.467108456 322.0
94.493369022 338.0
94.519629587 379.0
94.545890152 333.0
94.572150718 359.0
94.598411283 344.0
94.624671848 366.0
94.650932414 353.0
94.677192979 345.0
94.703453544 318.0
94.729714110 336.0
94.755974675 338.0
94.782235240 352.0
94.808495806 346.0
94.834756371 349.0
94.861016937 338.0
94.887277502 360.0
94.913538067 368.0
94.939798633 357.0
94.966059198 353.0
94.992319763 327.0
95.018580329 342.0
95.044840894 379.0
95.071101459 328.0
95.097362025 346.0
95.123622590 348.0
95.149883155 322.0
95.176143721 319.0
95.202404286 387.0
95.228664851 365.0
95.254925417 353.0
95.281185982 354.0
95.307446548 317.0
95.333707113 379.0
95.359967678 335.0
95.386228244 343.0
95.412488809 335.0
95.438749374 339.0
95.465009940 308.0
95.491270505 364.0
95.517531070 352.0
95.543791636 379.0
95.570052201 361.0
95.596312766 379.0
95.622573332 368.0
95.648833897 335.0
95.675094462 361.0
95.701355028 380.0
95.727615593 342.0
95.753876159 346.0
95.780136724 340.0
95.806397289 361.0
95.832657855 337.0
95.858918420 324.0
95.885178985 329.0
95.911439551 347.0
95.937700116 338.0
95.963960681 363.0
95.990221247 381.0
96.016481812 302.0
96.042742377 337.0
96.069002943 323.0
96.095263508 336.0
96.121524073 365.0
96.147784639 375.0
96.174045204 346.0
96.200305770 413.0
96.226566335 362.0
96.252826900 363.0
96.279087466 355.0
96.305348031 352.0
96.331608596 395.0
96.357869162 315.0
96.384129727 389.0
96.410390292 358.0
96.436650858 348.0
96.462911423 366.0
96.489171988 359.0
96.515432554 363.0
96.541693119 403.0
96.567953684 391.0
96.594214250 374.0
96.620474815 358.0
96.646735381 357.0
96.672995946 387.0
96.699256511 377.0
96.725517077 357.0
96.751777642 359.0
96.778038207 352.0
96.804298773 376.0
96.830559338 399.0
96.856819903 369.0
96.883080469 398.0
96.909341034 367.0
96.935601599 402.0
96.961862165 361.0
96.988122730 415.0
97.014383295 378.0
97.040643861 377.0
97.066904426 373.0
97.093164992 377.0
97.119425557 348.0
97.145686122 376.0
97.171946688 403.0
97.198207253 379.0
97.224467818 354.0
97.250728384 348.0
97.276988949 364.0
97.303249514 365.0
97.329510080 386.0
97.355770645 381.0
97.382031210 401.0
97.408291776 414.0
97.434552341 408.0
97.460812906 402.0
97.487073472 398.0
97.513334037 381.0
97.539594603 408.0
97.565855168 425.0
97.592115733 372.0
97.618376299 375.0
97.644636864 362.0
97.670897429 416.0
97.697157995 391.0
97.723418560 426.0
97.749679125 413.0
97.775939691 403.0
97.802200256 428.0
97.828460821 410.0
97.854721387 426.0
97.880981952 383.0
97.907242517 395.0
97.933503083 402.0
97.959763648 441.0
97.986024214 412.0
98.012284779 429.0
98.038545344 427.0
98.064805910 443.0
98.091066475 438.0
98.117327040 435.0
98.143587606 490.0
98.169848171 446.0
98.196108736 455.0
98.222369302 433.0
98.248629867 430.0
98.274890432 468.0
98.301150998 442.0
98.327411563 438.0
98.353672128 456.0
98.379932694 456.0
98.406193259 500.0
98.432453825 543.0
98.458714390 510.0
98.484974955 518.0
98.511235521 521.0
98.537496086 549.0
98.563756651 557.0
98.590017217 596.0
98.616277782 570.0
98.642538347 598.0
98.668798913 616.0
98.695059478 615.0
98.721320043 593.0
98.747580609 644.0
98.773841174 638.0
98.800101739 723.0
98.826362305 696.0
98.852622870 697.0
98.878883436 749.0
98.905144001 756.0
98.931404566 807.0
98.957665132 830.0
98.983925697 921.0
99.010186262 926.0
99.036446828 992.0
99.062707393 1013.0
99.088967958 1103.0
99.115228524 1188.0
99.141489089 1144.0
99.167749654 1415.0
99.194010220 1442.0
99.220270785 1489.0
99.246531351 1547.0
99.272791916 1805.0
99.299052481 1850.0
99.325313047 2034.0
99.351573612 2236.0
99.377834177 2421.0
99.404094743 2587.0
99.430355308 2863.0
99.456615873 3178.0
99.482876439 3548.0
99.509137004 4106.0
99.535397569 4609.0
99.561658135 5289.0
99.587918700 6013.0
99.614179265 6688.0
99.640439831 7728.0
99.666700396 8758.0
99.692960962 9806.0
99.719221527 11134.0
99.745482092 12432.0
99.771742658 13511.0
99.798003223 14361.0
99.824263788 15106.0
99.850524354 14996.0
99.876784919 14325.0
99.903045484 13676.0
99.929306050 13289.0
99.955566615 12619.0
99.981827180 12052.0
100.008087746 11908.0
100.034348311 11474.0
100.060608876 11441.0
100.086869442 10931.0
100.113130007 10653.0
100.139390573 9934.0
100.165651138 9138.0
100.191911703 8429.0
100.218172269 7621.0
100.244432834 6477.0
100.270693399 5850.0
100.296953965 5374.0
100.323214530 4597.0
100.349475095 4040.0
100.375735661 3759.0
100.401996226 3295.0
100.428256791 2921.0
100.454517357 2688.0
100.480777922 2375.0
100.507038487 2185.0
100.533299053 1977.0
100.559559618 1840.0
100.585820184 1668.0
100.612080749 1599.0
100.638341314 1474.0
100.664601880 1394.0
100.690862445 1218.0
100.717123010 1229.0
100.743383576 1159.0
100.769644141 1048.0
100.795904706 1039.0
100.822165272 973.0
100.848425837 929.0
100.874686402 905.0
100.900946968 865.0
100.927207533 821.0
100.953468098 773.0
100.979728664 715.0
101.005989229 759.0
101.032249795 735.0
101.058510360 698.0
101.084770925 705.0
101.111031491 646.0
101.137292056 687.0
101.163552621 639.0
101.189813187 649.0
101.216073752 592.0
101.242334317 618.0
101.268594883 554.0
101.294855448 576.0
101.321116013 594.0
101.347376579 531.0
101.373637144 602.0
101.399897709 552.0
101.426158275 510.0
101.452418840 569.0
101.478679406 508.0
101.504939971 514.0
101.531200536 513.0
101.557461102 503.0
101.583721667 511.0
101.609982232 510.0
101.636242798 454.0
101.662503363 507.0
101.688763928 451.0
101.715024494 497.0
101.741285059 459.0
101.767545624 486.0
101.793806190 460.0
101.820066755 440.0
101.846327320 473.0
101.872587886 430.0
101.898848451 425.0
101.925109017 473.0
101.951369582 482.0
101.977630147 442.0
102.003890713 413.0
102.030151278 488.0
102.056411843 420.0
102.082672409 479.0
102.108932974 399.0
102.135193539 432.0
102.161454105 405.0
102.187714670 387.0
102.213975235 399.0
102.240235801 419.0
102.266496366 440.0
102.292756931 403.0
102.319017497 389.0
102.345278062 414.0
102.371538628 384.0
102.397799193 449.0
102.424059758 393.0
102.450320324 402.0
102.476580889 409.0
102.502841454 414.0
102.529102020 407.0
102.555362585 398.0
102.581623150 428.0
102.607883716 390.0
102.634144281 371.0
102.660404846 426.0
102.686665412 428.0
102.712925977 418.0
102.739186542 436.0
102.765447108 386.0
102.791707673 402.0
102.817968239 344.0
102.844228804 364.0
102.870489369 390.0
102.896749935 384.0
102.923010500 394.0
102.949271065 386.0
102.975531631 395.0
103.001792196 381.0
103.028052761 393.0
103.054313327 396.0
103.080573892 394.0
103.106834457 387.0
103.133095023 398.0
103.159355588 373.0
103.185616153 376.0
103.211876719 369.0
103.238137284 366.0
103.264397850 405.0
103.290658415 397.0
103.316918980 388.0
103.343179546 369.0
103.369440111 369.0
103.395700676 374.0
103.421961242 364.0
103.448221807 378.0
103.474482372 372.0
103.500742938 377.0
103.527003503 377.0
103.553264068 389.0
103.579524634 364.0
103.605785199 399.0
103.632045765 384.0
103.658306330 400.0
103.684566895 401.0
103.710827461 397.0
103.737088026 392.0
103.763348591 350.0
103.789609157 325.0
103.815869722 364.0
103.842130287 403.0
103.868390853 362.0
103.894651418 399.0
103.920911983 380.0
103.947172549 366.0
103.973433114 374.0
103.999693679 368.0
104.025954245 349.0
104.052214810 370.0
104.078475376 335.0
104.104735941 386.0
104.130996506 390.0
104.157257072 375.0
104.183517637 371.0
104.209778202 356.0
104.236038768 370.0
104.262299333 397.0
104.288559898 387.0
104.314820464 371.0
104.341081029 395.0
104.367341594 366.0
104.393602160 363.0
104.419862725 374.0
104.446123290 403.0
104.472383856 362.0
104.498644421 386.0
104.524904987 359.0
104.551165552 405.0
104.577426117 388.0
104.603686683 371.0
104.629947248 393.0
104.656207813 382.0
104.682468379 370.0
104.708728944 381.0
104.734989509 344.0
104.761250075 359.0
104.787510640 356.0
104.813771205 380.0
104.840031771 381.0
104.866292336 384.0
104.892552901 389.0
104.918813467 384.0
104.945074032 356.0
104.971334598 353.0
104.997595163 362.0
105.023855728 382.0
105.050116294 329.0
105.076376859 351.0
105.102637424 367.0
105.128897990 334.0
105.155158555 319.0
105.181419120 359.0
105.207679686 353.0
105.233940251 361.0
105.260200816 346.0
105.286461382 362.0
105.312721947 378.0
105.338982512 341.0
105.365243078 337.0
105.391503643 348.0
105.417764209 393.0
105.444024774 340.0
105.470285339 387.0
105.496545905 367.0
105.522806470 354.0
105.549067035 337.0
105.575327601 343.0
105.601588166 400.0
105.627848731 379.0
105.654109297 351.0
105.680369862 343.0
105.706630427 354.0
105.732890993 322.0
105.759151558 317.0
105.785412123 355.0
105.811672689 360.0
105.837933254 338.0
105.864193820 351.0
105.890454385 368.0
105.916714950 348.0
105.942975516 338.0
105.969236081 339.0
105.995496646 329.0
106.021757212 372.0
106.048017777 347.0
106.074278342 350.0
106.100538908 343.0
106.126799473 351.0
106.153060038 365.0
106.179320604 361.0
106.205581169 362.0
106.231841734 366.0
106.258102300 344.0
106.284362865 340.0
106.310623431 347.0
106.336883996 327.0
106.363144561 327.0
106.389405127 354.0
106.415665692 294.0
106.441926257 375.0
106.468186823 365.0
106.494447388 383.0
106.520707953 377.0
106.546968519 312.0
106.573229084 339.0
106.599489649 312.0
106.625750215 358.0
106.652010780 375.0
106.678271345 336.0
106.704531911 366.0
106.730792476 377.0
106.757053042 375.0
106.783313607 341.0
106.809574172 364.0
106.835834738 318.0
106.862095303 356.0
106.888355868 350.0
106.914616434 349.0
106.940876999 379.0
106.967137564 341.0
106.993398130 346.0
107.019658695 350.0
107.045919260 340.0
107.072179826 341.0
107.098440391 335.0
107.124700956 363.0
107.150961522 377.0
107.177222087 336.0
107.203482653 388.0
107.229743218 374.0
107.256003783 355.0
107.282264349 374.0
107.308524914 332.0
107.334785479 359.0
107.361046045 378.0
107.387306610 348.0
107.413567175 356.0
107.439827741 355.0
107.466088306 347.0
107.492348871 392.0
107.518609437 370.0
107.544870002 355.0
107.571130567 380.0
107.597391133 360.0
107.623651698 371.0
107.649912264 347.0
107.676172829 376.0
107.702433394 327.0
107.728693960 393.0
107.754954525 374.0
107.781215090 330.0
107.807475656 321.0
107.833736221 340.0
107.859996786 371.0
107.886257352 355.0
107.912517917 350.0
107.938778482 367.0
107.965039048 353.0
107.991299613 372.0
108.017560179 343.0
108.043820744 366.0
108.070081309 365.0
108.096341875 345.0
108.122602440 345.0
108.148863005 344.0
108.175123571 351.0
108.201384136 378.0
108.227644701 328.0
108.253905267 351.0
108.280165832 318.0
108.306426397 351.0
108.332686963 334.0
108.358947528 351.0
108.385208093 370.0
108.411468659 364.0
108.437729224 326.0
108.463989790 377.0
108.490250355 314.0
108.516510920 335.0
108.542771486 351.0
108.569032051 348.0
108.595292616 318.0
108.621553182 371.0
108.647813747 347.0
108.674074312 363.0
108.700334878 340.0
108.726595443 326.0
108.752856008 340.0
108.779116574 314.0
108.805377139 362.0
108.831637704 346.0
108.857898270 305.0
108.884158835 331.0
108.910419401 358.0
108.936679966 389.0
108.962940531 358.0
108.989201097 318.0
109.015461662 363.0
109.041722227 365.0
109.067982793 331.0
109.094243358 329.0
109.120503923 338.0
109.146764489 351.0
109.173025054 341.0
109.199285619 337.0
109.225546185 367.0
109.251806750 370.0
109.278067315 350.0
109.304327881 357.0
109.330588446 336.0
109.356849012 353.0
109.383109577 348.0
109.409370142 379.0
109.435630708 367.0
109.461891273 353.0
109.488151838 336.0
109.514412404 369.0
109.540672969 369.0
109.566933534 362.0
109.593194100 355.0
109.619454665 381.0
109.645715230 349.0
109.671975796 375.0
109.698236361 369.0
109.724496926 326.0
109.750757492 323.0
109.777018057 336.0
109.803278623 379.0
109.829539188 350.0
109.855799753 357.0
109.882060319 378.0
109.908320884 375.0
109.934581449 332.0
109.960842015 355.0
109.987102580 330.0
